Steller Spectroscopy HD 200207	
	
Date of Observation:	7/23/2010
Star Observed:	HD 200207
Spectral Class:	G5
	
Wavelength (A)	Intensity (Counts)
6200.4	13654.23
6201.2	14272.89
6202	15202.08
6202.8	15394.79
6203.6	15202.97
6204.4	15039.65
6205.2	14714.85
6206	15160.13
6206.8	15198.14
6207.6	15473.72
6208.4	15618.22
6209.2	15635.58
6210	15403.82
6210.8	15128.28
6211.6	15774.14
6212.4	15167.64
6213.2	14303.3
6214	13602.58
6214.8	14279.19
6215.6	13911.64
6216.4	13940.76
6217.2	14966.54
6218	15235.51
6218.8	14725.69
6219.6	13927.54
6220.4	14350.08
6221.2	14251.14
6222	14537.3
6222.8	15487.32
6223.6	15272.8
6224.4	14451.86
6225.2	14973.28
6226	15339.85
6226.8	15164.18
6227.6	14948.59
6228.4	15110.49
6229.2	14791.78
6230	14015.48
6230.8	13026.93
6231.6	13780.42
6232.4	14498.48
6233.2	13967.32
6234	15018.47
6234.8	15540.5
6235.6	15610.11
6236.4	15495.7
6237.2	15148.52
6238	14795.24
6238.8	14797.85
6239.6	14956.23
6240.4	14327.85
6241.2	14528.66
6242	15621.15
6242.8	14619.99
6243.6	13476.36
6244.4	14059.95
6245.2	14695.3
6246	14086.45
6246.8	14088.54
6247.6	15032.88
6248.4	15586.96
6249.2	15580.1
6250	15208.7
6250.8	15548.76
6251.6	15035.72
6252.4	13755.55
6253.2	13935.24
6254	14196.55
6254.8	13696.65
6255.6	14709.27
6256.4	13816.74
6257.2	14170.1
6258	14306.51
6258.8	13395.52
6259.6	14453.14
6260.4	15279.61
6261.2	14707.97
6262	14846.47
6262.8	15444.44
6263.6	15929.68
6264.4	15765.03
6265.2	14586.36
6266	14449.77
6266.8	15452.11
6267.6	15602.52
6268.4	15385.94
6269.2	15403.48
6270	15026.91
6270.8	14772.55
6271.6	15061.29
6272.4	15262.23
6273.2	15576.71
6274	15958.71
6274.8	15240.36
6275.6	15387.6
6276.4	15524.43
6277.2	14910.42
6278	14392.08
6278.8	14655.76
6279.6	14468.87
6280.4	13890.3
6281.2	14130.14
6282	14883.99
6282.8	14350.77
6283.6	14977.46
6284.4	15538.35
6285.2	15017.32
6286	14908.37
6286.8	15278.31
6287.6	15490.96
6288.4	16004.29
6289.2	15787.74
6290	15441.32
6290.8	15018.48
6291.6	14877.15
6292.4	15269.91
6293.2	15110.18
6294	15031.62
6294.8	15883.77
6295.6	15847.25
6296.4	14861
6297.2	14606.48
6298	14388.69
6298.8	14905.88
6299.6	15260.29
6300.4	15220.92
6301.2	14838.47
6302	13858.02
6302.8	14054.49
6303.6	15119.84
6304.4	15642.62
6305.2	15553.37
6306	15290.59
6306.8	15254.12
6307.6	15699.77
6308.4	15768.32
6309.2	15994.77
6310	15706.15
6310.8	15283.36
6311.6	14723.58
6312.4	14965.09
6313.2	15732.12
6314	15985.27
6314.8	14687.26
6315.6	13658.76
6316.4	14371.11
6317.2	15366.18
6318	14365.61
6318.8	13874.46
6319.6	14317.92
6320.4	15074.64
6321.2	15341.94
6322	15480.87
6322.8	14577.79
6323.6	15131.15
6324.4	15900.31
6325.2	15694.35
6326	16023.21
6326.8	15884.28
6327.6	15380.51
6328.4	15420.97
6329.2	16240.41
6330	15616.98
6330.8	15147.22
6331.6	15712.26
6332.4	15909.74
6333.2	15984.71
6334	16304.53
6334.8	15697.31
6335.6	14501.12
6336.4	14400.52
6337.2	14746.84
6338	15732.26
6338.8	15521.17
6339.6	15192.09
6340.4	15568.02
6341.2	16062.42
6342	15824.5
6342.8	15270.79
6343.6	14971.36
6344.4	14395.44
6345.2	15151.63
6346	15656.55
6346.8	15754.01
6347.6	15415.76
6348.4	16053.71
6349.2	16314.02
6350	16228.07
6350.8	16038.01
6351.6	16046.8
6352.4	16250.29
6353.2	16008.41
6354	15998.8
6354.8	15315.59
6355.6	14550.78
6356.4	15665.15
6357.2	15933.53
6358	15610.03
6358.8	14510.25
6359.6	14641.54
6360.4	15136.88
6361.2	14659.97
6362	14658.02
6362.8	14198.72
6363.6	14799.71
6364.4	14958.47
6365.2	15023.43
6366	15778.57
6366.8	15421
6367.6	16057.43
6368.4	16222.81
6369.2	16214.68
6370	15710.1
6370.8	15784.19
6371.6	15934.8
6372.4	16315.3
6373.2	16717.11
6374	16611.13
6374.8	16294.47
6375.6	16095.83
6376.4	16245.54
6377.2	16478.9
6378	16016.43
6378.8	15721.64
6379.6	16164.3
6380.4	16089.01
6381.2	15545.2
6382	16144.52
6382.8	16245.67
6383.6	16316.2
6384.4	16047.5
6385.2	15684.18
6386	16313.07
6386.8	16532.18
6387.6	16459.99
6388.4	16529.95
6389.2	16444.99
6390	16688.29
6390.8	16509.55
6391.6	16399.11
6392.4	15998.93
6393.2	14986.04
6394	14411.64
6394.8	15700.12
6395.6	16292.53
6396.4	16258.15
6397.2	16768.71
6398	16633.26
6398.8	16646.77
6399.6	16048.84
6400.4	13608.26
6401.2	15055.48
6402	16576.8
6402.8	16665.79
6403.6	16470.7
6404.4	16497.23
6405.2	16430.02
6406	16323.9
6406.8	16301.88
6407.6	15295.3
6408.4	14676.58
6409.2	15508.62
6410	16271.74
6410.8	16120.43
6411.6	14983.28
6412.4	15290.58
6413.2	16610.1
6414	16449.67
6414.8	15650.89
6415.6	16079.8
6416.4	16430.96
6417.2	16113.11
6418	16254.6
6418.8	16288.45
6419.6	16153.11
6420.4	15638.88
6421.2	15189.99
6422	14715.43
6422.8	16520.79
6423.6	17181.31
6424.4	16743.31
6425.2	16712.39
6426	16612.1
6426.8	16949.39
6427.6	17132.04
6428.4	16969.91
6429.2	16646.29
6430	16457.27
6430.8	15200.1
6431.6	15030.11
6432.4	16086.43
6433.2	16158.7
6434	16597.54
6434.8	16732.85
6435.6	16996
6436.4	16853.35
6437.2	16728.54
6438	16754.8
6438.8	15546.46
6439.6	14951.56
6440.4	16274.67
6441.2	17225.24
6442	17051.13
6442.8	16845.88
6443.6	16902.25
6444.4	16856.19
6445.2	16734.81
6446	16857.21
6446.8	17092.39
6447.6	17077.43
6448.4	16793.78
6449.2	15717.08
6450	13860.75
6450.8	13843.41
6451.6	16615.45
6452.4	16838.26
6453.2	16881.25
6454	16902.17
6454.8	16837.92
6455.6	16141.69
6456.4	15547.37
6457.2	16136.39
6458	16805.06
6458.8	17328.86
6459.6	17125.96
6460.4	16798.08
6461.2	17110.36
6462	16605.77
6462.8	14148.08
6463.6	14871.27
6464.4	16355
6465.2	16695.07
6466	16873.45
6466.8	16828.06
6467.6	17046.65
6468.4	16967.52
6469.2	16280.68
6470	16247.06
6470.8	16898.04
6471.6	16164.67
6472.4	15928.42
6473.2	17020.38
6474	17263.04
6474.8	17012.17
6475.6	15866.48
6476.4	15987.23
6477.2	16860.21
6478	16800.39
6478.8	16669.48
6479.6	17042.33
6480.4	16792.28
6481.2	16646.33
6482	15790.68
6482.8	15453.14
6483.6	15833.44
6484.4	16516.64
6485.2	17044.74
6486	17104.63
6486.8	17026.48
6487.6	17362.46
6488.4	17359.38
6489.2	17195.16
6490	16992.39
6490.8	16870.94
6491.6	16368.18
6492.4	16655.09
6493.2	16455.18
6494	15250.67
6494.8	14103.54
6495.6	14229.38
6496.4	14595.14
6497.2	14491.06
6498	16140.17
6498.8	16171.25
6499.6	15416.95
6500.4	16376.23
6501.2	17064.58
6502	16707.3
6502.8	17348.9
6503.6	17400.91
6504.4	16902.32
6505.2	17260.34
6506	17676.72
6506.8	17618.21
6507.6	17465.9
6508.4	17240.61
6509.2	17252.43
6510	17125.64
6510.8	17293.33
6511.6	17337.63
6512.4	17248.01
6513.2	17402.04
6514	17456.95
6514.8	17122.43
6515.6	16901.82
6516.4	16235.65
6517.2	16673.36
6518	16615.12
6518.8	16008.28
6519.6	16500.72
6520.4	17153.97
6521.2	17501.42
6522	17606.76
6522.8	17303.46
6523.6	17149.58
6524.4	17443.65
6525.2	17791.22
6526	17604.68
6526.8	16701.92
6527.6	16576.5
6528.4	17170.27
6529.2	17366.62
6530	17959.57
6530.8	18025.5
6531.6	17485.81
6532.4	17216.56
6533.2	16895.76
6534	16862.63
6534.8	17295.42
6535.6	18042.72
6536.4	17681.76
6537.2	17355.48
6538	17364.96
6538.8	17380.92
6539.6	17579.94
6540.4	17673.84
6541.2	17888.71
6542	17698.24
6542.8	17580.05
6543.6	17637.48
6544.4	17676.4
6545.2	17688.7
6546	17002.99
6546.8	16578.14
6547.6	17299.14
6548.4	17424.17
6549.2	17660.78
6550	17582.39
6550.8	17712.27
6551.6	17331.45
6552.4	17252.75
6553.2	17352.19
6554	17258.08
6554.8	16985.1
6555.6	16527.58
6556.4	16526.81
6557.2	17541.75
6558	17503.68
6558.8	17544.06
6559.6	17051.72
6560.4	16309
6561.2	16292.65
6562	14269.9
6562.8	8841.84
6563.6	9502.3
6564.4	14773.27
6565.2	16836.48
6566	17419.22
6566.8	17763.26
6567.6	17860.08
6568.4	17828.92
6569.2	16792.48
6570	16947.31
6570.8	17623.17
6571.6	17759.02
6572.4	17341.23
6573.2	16938.61
6574	17228.63
6574.8	16241.53
6575.6	16669.66
6576.4	17967.1
6577.2	18189.01
6578	18480.92
6578.8	18505.11
6579.6	18157.84
6580.4	17814.7
6581.2	17118.95
6582	17266.05
6582.8	17750.97
6583.6	17797.15
6584.4	17853.2
6585.2	18077.13
6586	17556.96
6586.8	17313.69
6587.6	18330.68
6588.4	18612.34
6589.2	18353.32
6590	18521.54
6590.8	18150.13
6591.6	18128.55
6592.4	17121.57
6593.2	15479
6594	15551.17
6594.8	17082.8
6595.6	17695.78
6596.4	17700.26
6597.2	17758.05
6598	17396.59
6598.8	17303.37
6599.6	17671.15
6600.4	18276.68
6601.2	18534.89
6602	18462.78
6602.8	18331.14
6603.6	18292.67
6604.4	17811.05
6605.2	17488.29
6606	17791.54
6606.8	17724.53
6607.6	17487.51
6608.4	17268.49
6609.2	16632.92
6610	16796.3
6610.8	18492.69
6611.6	18693.44
6612.4	18838.23
6613.2	18144.17
6614	17613.42
6614.8	18369.57
6615.6	18739.46
6616.4	18677.98
6617.2	18656.78
6618	18525.45
6618.8	18737.49
6619.6	18792.36
6620.4	19022.34
6621.2	19134.91
6622	18795.89
6622.8	19070.06
6623.6	18749.22
6624.4	18166.3
6625.2	17668.52
6626	18462.06
6626.8	18846.8
6627.6	18134.01
6628.4	18272.05
6629.2	18562.64
6630	18109.11
6630.8	18146.73
6631.6	17987.8
6632.4	17910.96
6633.2	17371.37
6634	16036.71
6634.8	16985.41
6635.6	17726.13
6636.4	18208.53
6637.2	18476.96
6638	18304.4
6638.8	18424.68
6639.6	17590.64
6640.4	17288.56
6641.2	18490.79
6642	18795.79
6642.8	18371.38
6643.6	16964.59
6644.4	16984.09
6645.2	18121.49
6646	18176.64
6646.8	18250.88
6647.6	17841.49
6648.4	17934.13
6649.2	18370.03
6650	18572.09
6650.8	18499.9
6651.6	18667.12
6652.4	18616.64
6653.2	18729.49
6654	18619.9
6654.8	18773.21
6655.6	18959.95
6656.4	18825.32
6657.2	18680.62
6658	19145.69
6658.8	19048.29
6659.6	18858.24
6660.4	18742.14
6661.2	18276.94
6662	18800.44
6662.8	18031.74
6663.6	16996.75
6664.4	18241.2
6665.2	18919.9
6666	18694.82
6666.8	18654.96
6667.6	18278.51
6668.4	18281.98
6669.2	18370.5
6670	18708.05
6670.8	18709.9
6671.6	18595.46
6672.4	18209.2
6673.2	18285.12
6674	18312.98
6674.8	18700.42
6675.6	18809.06
6676.4	18990.14
6677.2	18617.38
6678	16782.19
6678.8	17293.3
6679.6	18607.01
6680.4	19057.84
6681.2	19171.72
6682	19225.57
6682.8	19353.31
6683.6	19111.05
6684.4	19047.19
6685.2	18853.56
6686	18958.73
6686.8	18805.89
6687.6	18392.1
6688.4	18579.15
6689.2	19162.74
6690	19007.96
6690.8	19060.39
6691.6	19100.93
6692.4	19167.28
6693.2	18987.64
6694	19452.96
6694.8	19385.07
6695.6	18827.36
6696.4	18316.97
6697.2	18459.83
6698	18770.9
6698.8	18395.43
6699.6	18975.25
6700.4	19328.68
6701.2	19126.15
6702	19247.92
6702.8	18963.92
6703.6	18053.13
6704.4	18103.39
6705.2	18001.35
6706	18436.06
6706.8	19409.82
6707.6	18959.73
6708.4	18749.38
6709.2	18671.22
6710	18230.8
6710.8	18004.18
6711.6	18439.51
6712.4	18340.01
6713.2	17908.35
6714	18063.75
6714.8	18183.95
6715.6	17417.28
6716.4	17781.02
6717.2	17232.85
6718	16385.99
6718.8	18001.1
6719.6	18320.97
6720.4	18798.94
6721.2	18720.68
6722	18309.64
6722.8	18668.09
6723.6	19347.95
6724.4	19468.88
6725.2	18697.57
6726	18257.48
6726.8	18074.74
6727.6	18516.98
6728.4	18830.15
6729.2	18744.34
6730	18862.99
6730.8	18989.31
6731.6	19000.23
6732.4	18817.9
6733.2	18377.8
6734	18376.52
6734.8	18544.13
6735.6	18865.19
6736.4	18907.15
6737.2	18652.18
6738	18191.43
6738.8	17864.27
6739.6	18003.4
6740.4	18346.46
6741.2	18888.51
6742	18619.82
6742.8	18293.94
6743.6	17815.35
6744.4	18539.26
6745.2	18404.46
6746	18496.21
6746.8	18263.63
6747.6	18126.18
6748.4	18131.54
6749.2	18425.31
6750	17709.3
6750.8	17791.13
6751.6	18780.89
6752.4	18457.75
6753.2	18211.47
6754	18872.02
6754.8	18914.41
6755.6	18804.04
6756.4	18928.07
6757.2	19048.23
6758	19318.6
6758.8	19567.28
6759.6	19364.6
6760.4	19558.8
6761.2	19628.29
6762	19610.76
6762.8	19552.7
6763.6	19600.45
6764.4	19646.1
6765.2	19610.78
6766	19291
6766.8	19029.48
6767.6	17991.65
6768.4	18352.4
6769.2	18938.37
6770	19215.49
6770.8	18253.84
6771.6	18237.62
6772.4	18323.38
6773.2	19153.8
6774	19606.86
6774.8	19454.8
6775.6	19663.5
6776.4	19363.79
6777.2	19016.28
6778	18831.8
6778.8	18915.93
6779.6	19010.06
6780.4	19014.84
6781.2	19126.92
6782	18482.49
6782.8	18205.87
6783.6	17833.29
6784.4	17673.96
6785.2	18028.96
6786	17952.63
6786.8	17426.14
6787.6	18111.82
6788.4	18844.21
6789.2	18352.35
6790	18723.33
6790.8	18698.96
6791.6	18894.07
6792.4	18716.29
6793.2	18676.21
6794	18500.27
6794.8	18779.73
6795.6	19055.36
6796.4	18770.89
6797.2	18962.49
6798	19212.33
6798.8	18689.25
6799.6	18710.81
6800.4	18698.07
6801.2	18688.46
6802	18825.76
6802.8	19000.08
6803.6	18257.57
6804.4	18192.54
6805.2	18718.49
6806	18957.96
6806.8	18404.29
6807.6	18531.65
6808.4	18890.01
6809.2	18985.53
6810	18378.26
6810.8	18359.63
6811.6	18981.23
6812.4	18913.28
6813.2	18992.76
6814	18637.3
6814.8	18263.33
6815.6	18267.41
6816.4	19188.36
6817.2	19268.27
6818	19422.33
6818.8	19166.63
6819.6	19232.56
6820.4	18318.9
6821.2	18663.8
6822	18965.26
6822.8	19257.7
6823.6	19621.17
6824.4	19346.78
6825.2	19000.27
6826	18960.29
6826.8	19356.22
6827.6	19065.85
6828.4	18339.77
6829.2	18376.28
6830	19146.37
6830.8	19208.37
6831.6	19308.36
6832.4	19548.31
6833.2	19190.7
6834	19003.46
6834.8	19611.1
6835.6	19331.02
6836.4	19347.36
6837.2	18815.56
6838	18617.17
6838.8	18305.93
6839.6	17912.2
6840.4	17769.46
6841.2	17338.21
6842	17091.11
6842.8	17317.34
6843.6	17400.52
6844.4	17919.12
6845.2	18664.39
6846	18420.25
6846.8	18227.5
6847.6	18291.61
6848.4	18287.67
6849.2	18209.74
6850	18347.33
6850.8	18516.26
6851.6	18349.68
6852.4	18510.83
6853.2	18745.67
6854	18374.63
6854.8	17360.97
6855.6	16862.24
6856.4	17765.14
6857.2	18061.39
6858	17557.33
6858.8	18281.96
6859.6	18664.75
6860.4	18009.34
6861.2	17619.34
6862	17182.12
6862.8	17719.54
6863.6	18495.13
6864.4	18670.35
6865.2	18716.29
6866	18859.51
6866.8	17708.05
6867.6	14632.76
6868.4	12071.34
6869.2	12104.37
6870	13480.41
6870.8	13856.59
6871.6	13769.57
6872.4	13895.18
6873.2	14086.61
6874	15069.79
6874.8	14867.69
6875.6	14962.31
6876.4	15302.07
6877.2	15797.75
6878	16414.31
6878.8	17157.39
6879.6	16495.6
6880.4	17165.73
6881.2	18033.3
6882	18108.3
6882.8	17693.71
6883.6	17155.68
6884.4	17395.42
6885.2	17847.64
6886	16259.42
6886.8	15843.37
6887.6	16995.14
6888.4	17744.92
6889.2	16263.37
6890	15572.7
6890.8	16840.05
6891.6	18100.2
6892.4	16544.54
6893.2	15278.88
6894	16363.67
6894.8	17429.98
6895.6	17210.39
6896.4	15612.83
6897.2	15627.35
6898	17010.59
6898.8	18023.38
6899.6	17391.89
6900.4	15817.93
6901.2	15984.75
6902	17502.41
6902.8	18180.81
6903.6	17599.74
6904.4	16518.96
6905.2	15964.13
6906	16744.82
6906.8	17629.43
6907.6	18044.15
6908.4	17081.83
6909.2	15889.51
6910	16395.28
6910.8	17635.29
6911.6	17435.42
6912.4	17633.52
6913.2	16795.18
6914	15471.58
6914.8	15530.17
6915.6	17427.88
6916.4	17589.23
6917.2	17236.33
6918	17332.13
6918.8	16745.34
6919.6	17546.38
6920.4	18352.96
6921.2	18283.91
6922	18359.73
6922.8	17945.92
6923.6	17029.09
6924.4	16117.28
6925.2	16804.06
6926	17066.76
6926.8	17413.12
6927.6	17831.35
6928.4	17297.81
6929.2	16726.28
6930	16808.11
6930.8	17063.87
6931.6	17291.69
6932.4	17428.64
6933.2	16865.72
6934	16896.9
6934.8	17814.69
6935.6	18024.21
6936.4	18375.88
6937.2	18259.72
6938	18087.7
6938.8	18013.93
6939.6	18103.62
6940.4	17417.19
6941.2	17626.37
6942	17456.41
6942.8	17103.24
6943.6	17099.89
6944.4	17030.37
6945.2	16380.71
6946	17044.77
6946.8	17504.24
6947.6	16800.93
6948.4	17025.49
6949.2	17836.59
6950	17754.46
6950.8	17269.95
6951.6	16388.79
6952.4	17159.49
6953.2	17088.55
6954	16812.51
6954.8	17338.57
6955.6	17250.46
6956.4	16830.13
6957.2	16750.21
6958	17290.46
6958.8	17560.26
6959.6	17207.79
6960.4	17156.62
6961.2	17220.4
6962	17662.03
6962.8	17975.28
6963.6	17792
6964.4	18142.9
6965.2	17705.1
6966	17533.64
6966.8	18170.4
6967.6	18662.63
6968.4	18560.85
6969.2	18696.08
6970	18498.95
6970.8	18008.06
6971.6	18173.47
6972.4	18325.15
6973.2	18955.77
6974	18954.36
6974.8	18613.35
6975.6	18353.37
6976.4	18003.64
6977.2	17577.05
6978	16971.86
6978.8	16031.61
6979.6	16619.64
6980.4	18098.31
6981.2	18402.44
6982	18229.54
6982.8	18817.1
6983.6	19126.83
6984.4	18933.26
6985.2	18779.81
6986	18532.77
6986.8	17916.48
6987.6	18001.85
6988.4	17560.26
6989.2	17040.39
6990	17401.46
6990.8	17954.5
6991.6	18108.06
6992.4	18088.19
6993.2	17932.11
6994	17650.5
6994.8	17349.7
6995.6	18367.71
6996.4	18631.99
6997.2	18681.88
6998	18590.66
6998.8	17617.84
6999.6	17062.16
7000.4	17118.23
7001.2	17452.67
7002	17930.68
7002.8	18209.26
7003.6	17541.62
7004.4	16788.96
7005.2	16510.63
7006	16614.91
7006.8	17086.46
7007.6	17166.8
7008.4	17465.1
7009.2	17782.2
7010	17750.59
7010.8	17573.4
7011.6	17139.71
7012.4	17555.23
7013.2	17801.91
7014	18415.01
7014.8	18250.44
7015.6	17171.94
7016.4	15251.45
7017.2	15957.6
7018	17844.86
7018.8	18555.27
7019.6	18548.34
7020.4	18874.66
7021.2	18961.41
7022	19032.05
7022.8	18067.07
7023.6	17115.5
7024.4	16806.17
7025.2	17478.38
7026	18225.66
7026.8	17778.56
7027.6	17204.43
7028.4	17505.96
7029.2	17306.53
7030	17607.5
7030.8	17449.62
7031.6	17587.14
7032.4	17301.59
7033.2	17450.1
7034	17394.14
7034.8	17090.17
7035.6	17151.69
7036.4	17650.16
7037.2	17394.69
7038	16121.25
7038.8	15707.52
7039.6	16517.4
7040.4	17484.2
7041.2	18244.48
7042	18350.23
7042.8	18440.82
7043.6	18704.39
7044.4	18319.45
7045.2	17712.95
7046	18398.66
7046.8	18581.13
7047.6	18679.1
7048.4	18972.11
7049.2	18938.39
7050	19036.81
7050.8	18761.85
7051.6	18790.97
7052.4	18135.95
7053.2	17565.23
7054	18151.65
7054.8	19172.96
7055.6	19003.94
7056.4	18730.92
7057.2	18898.54
7058	18595.42
7058.8	18643.84
7059.6	18187.43
7060.4	17494.31
7061.2	18012.21
7062	18544.3
7062.8	18543.21
7063.6	18433.95
7064.4	18997.65
7065.2	18630.88
7066	17724.38
7066.8	17338.28
7067.6	17007.17
7068.4	16254.36
7069.2	16464.85
7070	17556.66
7070.8	17852.45
7071.6	17990.56
7072.4	17838.44
7073.2	18570.23
7074	18580.61
7074.8	18495.03
7075.6	18597.63
7076.4	18516.29
7077.2	18714.08
7078	18815.26
7078.8	18929.72
7079.6	18977.38
7080.4	19367.6
7081.2	19353.36
7082	19355.85
7082.8	18928.96
7083.6	18149.98
7084.4	17353.36
7085.2	16618.75
7086	18082.92
7086.8	18168.31
7087.6	18031.67
7088.4	18256.69
7089.2	18226.34
7090	17697.38
7090.8	17301.38
7091.6	17861.2
7092.4	18119.91
7093.2	17574.27
7094	18360.74
7094.8	18656.16
7095.6	18222.41
7096.4	18537.99
7097.2	18584.8
7098	18607.05
7098.8	18990.28
7099.6	18822.04
7100.4	18602.34
7101.2	18473.76
7102	18256.94
7102.8	18165.19
7103.6	18146.46
7104.4	18394.71
7105.2	18428.16
7106	18069.35
7106.8	17728.34
7107.6	17018.67
7108.4	17358.08
7109.2	17642.43
7110	17450.71
7110.8	17028.88
7111.6	16779.92
7112.4	16919.48
7113.2	17216.32
7114	17546.63
7114.8	17359.33
7115.6	17066.34
7116.4	17346.74
7117.2	17277.48
7118	17141.62
7118.8	17070.47
7119.6	16940.53
7120.4	16744.24
7121.2	17362.4
7122	16648.11
7122.8	15971.02
7123.6	17400.59
7124.4	17262.77
7125.2	16915.4
7126	16612.09
7126.8	16713.97
7127.6	16336.25
7128.4	16554.56
7129.2	16815.85
7130	16230.87
7130.8	15640.88
7131.6	15652.34
7132.4	16596.16
7133.2	16431.19
7134	17047.64
7134.8	17458.46
7135.6	17141.66
7136.4	17289.43
7137.2	17888.04
7138	17937.25
7138.8	17534.08
7139.6	17145.33
7140.4	17253.67
7141.2	17991.17
7142	17826.88
7142.8	17352.29
7143.6	17469.26
7144.4	17711.26
7145.2	16908.11
7146	16925.36
7146.8	17686.83
7147.6	16893.62
7148.4	15608.05
7149.2	16687.2
7150	17491.31
7150.8	17056.92
7151.6	16858.01
7152.4	17589.54
7153.2	18064.08
7154	17824.77
7154.8	17545.95
7155.6	16302.97
7156.4	16699.8
7157.2	17641.55
7158	17206
7158.8	16552.6
7159.6	16305.08
7160.4	16116.33
7161.2	16197.48
7162	16134.69
7162.8	15720.79
7163.6	15619.2
7164.4	14238.61
7165.2	13660.67
7166	14461.07
7166.8	14903.81
7167.6	14616.16
7168.4	14868.71
7169.2	15767.32
7170	15622.09
7170.8	14850.95
7171.6	15843.19
7172.4	15930.68
7173.2	14716.64
7174	14180.11
7174.8	15186.21
7175.6	15454.55
7176.4	14245.47
7177.2	13116.46
7178	13116.04
7178.8	14762.93
7179.6	15370.72
7180.4	14770.21
7181.2	13502.28
7182	12086.94
7182.8	13785.81
7183.6	15275.34
7184.4	13364.14
7185.2	11665.12
7186	12639.82
7186.8	11056.06
7187.6	9726.74
7188.4	11805.25
7189.2	13246.36
7190	13446.62
7190.8	13840.36
7191.6	12376.96
7192.4	11686.38
7193.2	12243.54
7194	11565.05
7194.8	12700.73
7195.6	13435.95
7196.4	13884
7197.2	12594.16
7198	12427.7
7198.8	12669.78
7199.6	13167.59
7200.4	12143.84
7201.2	10292.21
7202	10379.8
7202.8	11649.78
7203.6	12385.23
7204.4	11353.63
7205.2	11624.84
7206	12097.06
7206.8	10198.93
7207.6	9807.9
7208.4	11362.46
7209.2	11806.28
7210	11546.64
7210.8	12741.17
7211.6	13185.45
7212.4	13108.2
7213.2	13003.01
7214	13013.19
7214.8	12816.41
7215.6	12942.08
7216.4	12518.95
7217.2	12662.8
7218	13512.19
7218.8	13227.58
7219.6	12995.59
7220.4	13040.89
7221.2	12934.45
7222	13136.58
7222.8	12699.05
7223.6	11699.2
7224.4	11537.42
7225.2	12855.51
7226	12877.32
7226.8	12576.22
7227.6	12175.71
7228.4	11947.98
7229.2	11790.96
7230	12455.88
7230.8	12606.53
7231.6	12673.44
7232.4	12014.78
7233.2	10789.89
7234	11375.96
7234.8	10666.69
7235.6	10221.99
7236.4	11011.25
7237.2	11775.02
7238	12695.77
7238.8	12674.94
7239.6	12146.1
7240.4	10885.93
7241.2	10261.23
7242	11894.12
7242.8	12576.11
7243.6	11350.58
7244.4	10691.46
7245.2	10881.78
7246	10834.98
7246.8	11244.86
7247.6	11647.06
7248.4	11982.43
7249.2	12135.83
7250	11684.94
7250.8	11415.14
7251.6	11247.19
7252.4	10479.07
7253.2	9837.42
7254	10132.99
7254.8	11257.3
7255.6	12198.2
7256.4	12577.06
7257.2	12452.03
7258	12007.33
7258.8	12196.87
7259.6	12608.33
7260.4	12575.42
7261.2	11370.06
7262	10495.39
7262.8	11269.99
7263.6	11980.16
7264.4	11376.78
7265.2	10653.26
7266	10415.91
7266.8	11490.61
7267.6	12459.62
7268.4	12497.59
7269.2	12344.75
7270	12064.08
7270.8	12053.04
7271.6	12298.91
7272.4	12269.87
7273.2	10993.67
7274	11459.35
7274.8	12419.35
7275.6	11628.67
7276.4	11641.04
7277.2	11217.2
7278	10557.67
7278.8	11330.92
7279.6	12092.26
7280.4	12457.94
7281.2	12707.45
7282	12436.61
7282.8	11647.08
7283.6	12128.93
7284.4	12325.79
7285.2	12406.82
7286	12746.37
7286.8	12771.86
7287.6	11612.91
7288.4	10768.94
7289.2	10555.67
7290	10876.47
7290.8	10214.06
7291.6	9879.15
7292.4	10693.19
7293.2	10398.84
7294	11451.96
7294.8	12233.67
7295.6	11975.03
7296.4	13138.64
7297.2	13859.43
7298	13636.84
7298.8	13653.33
7299.6	13293.17
7300.4	12760.29
7301.2	13072.67
7302	13360.52
7302.8	12674.21
7303.6	12084.13
7304.4	11973.38
7305.2	12647.57
7306	13402.04
7306.8	13182.06
7307.6	13089.66
7308.4	12315.02
7309.2	12446.94
7310	12681.67
7310.8	13053.46
7311.6	12300.29
7312.4	12978.69
7313.2	13126.73
7314	13403.73
7314.8	14022.32
7315.6	13680.79
7316.4	13613.31
7317.2	13222.33
7318	12951.3
7318.8	12387.95
7319.6	12952.03
7320.4	13507.57
7321.2	12911.73
7322	13684.91
7322.8	14031.66
7323.6	13490.44
7324.4	12922.55
7325.2	13323.27
7326	12763.84
7326.8	12575.3
7327.6	12806.3
7328.4	13378.71
7329.2	13713.38
7330	13575.91
7330.8	13224.01
7331.6	13425.92
7332.4	14061.91
7333.2	13844.12
7334	13284.13
7334.8	13717.25
7335.6	14227.02
7336.4	14580.24
7337.2	15044.24
7338	14630.65
7338.8	14451.91
7339.6	13937.22
7340.4	13862.07
7341.2	14268.09
7342	14273.41
7342.8	14186.08
7343.6	13971.93
7344.4	12942.04
7345.2	12720.91
7346	13640.3
7346.8	13964.79
7347.6	13803.2
7348.4	13687.44
7349.2	13610.64
7350	13254.3
7350.8	13017.97
7351.6	12760.81
7352.4	13533.26
7353.2	13762.47
7354	13331.11
7354.8	13614.06
7355.6	12878.31
7356.4	12181.21
7357.2	12798.72
7358	13282.43
7358.8	13388.87
7359.6	13995.14
7360.4	14012.2
7361.2	13583.51
7362	13075.81
7362.8	13040.26
7363.6	13256.99
7364.4	13002.57
7365.2	13675.59
7366	14130.95
7366.8	13881.3
7367.6	14216.15
7368.4	14647.57
7369.2	14059.09
7370	13752.6
7370.8	14232.04
7371.6	14840.28
7372.4	14991.99
7373.2	14689.06
7374	14778.08
7374.8	14642.96
7375.6	14559.37
7376.4	14407.84
7377.2	14543.74
7378	14660.62
7378.8	14590
7379.6	14697.75
7380.4	14849.84
7381.2	14756.23
7382	14284.45
7382.8	13870.31
7383.6	14063.69
7384.4	14531.26
7385.2	14500.76
7386	14012.17
7386.8	14167.11
7387.6	14362.03
7388.4	14775.22
7389.2	14291.62
7390	13950.92
7390.8	15036.96
7391.6	15721.04
7392.4	15711.48
7393.2	15302.82
7394	14174.33
7394.8	14832.59
7395.6	15286.75
7396.4	14558.05
7397.2	14427.09
7398	14537.03
7398.8	14637.5
7399.6	14460.17
7400.4	13931.96
7401.2	13756.45
7402	13694.1
7402.8	14152.55
7403.6	14996.51
7404.4	15115.06
7405.2	15079.44
7406	14169.09
7406.8	14493.77
7407.6	15653
7408.4	15548.86
7409.2	14356.22
7410	14114.44
7410.8	14888.93
7411.6	14156.23
7412.4	15029.46
7413.2	15313.62
7414	14794.45
7414.8	13621.35
7415.6	13427.1
7416.4	13750.77
7417.2	14525.7
7418	14577.19
7418.8	14809.41
7419.6	14875.28
7420.4	15106.12
7421.2	15335.88
7422	14553.77
7422.8	14243.79
7423.6	14162.63
7424.4	14695.51
7425.2	15636.32
7426	16160.01
7426.8	16461.9
7427.6	16395.2
7428.4	16088.67
7429.2	16199.68
7430	15869.36
7430.8	15144.3
7431.6	14845.54
7432.4	15259.13
7433.2	15147.25
7434	15361.17
7434.8	15420.59
7435.6	15130.18
7436.4	14970.24
7437.2	14806.51
7438	14713.71
7438.8	15016.29
7439.6	15080.61
7440.4	14527.95
7441.2	14132.06
7442	14910.63
7442.8	15057.42
7443.6	14803.06
7444.4	15506.71
7445.2	15031.03
7446	13884.39
7446.8	14669.93
7447.6	14499.83
7448.4	14349.07
7449.2	14539.31
7450	14166.83
7450.8	14204.59
7451.6	14690.12
7452.4	14295.68
7453.2	14444.49
7454	14751.23
7454.8	14370.58
7455.6	14708.77
7456.4	14924.89
7457.2	15032.04
7458	15325.37
7458.8	15358.5
7459.6	15339.5
7460.4	15395.38
7461.2	15037.51
7462	13913.46
7462.8	13741.03
7463.6	14409.33
7464.4	14831.91
7465.2	15211.34
7466	15538.66
7466.8	15534.97
7467.6	15414.52
7468.4	15562.62
7469.2	15132.34
7470	15106.79
7470.8	15120.43
7471.6	15298.03
7472.4	15092.02
7473.2	14858.54
7474	14885.22
7474.8	15294.5
7475.6	14985.89
7476.4	14993.44
7477.2	15013.04
7478	15210.71
7478.8	15028.83
7479.6	15012.69
7480.4	15265.22
7481.2	15169.19
7482	14679.74
7482.8	14478.19
7483.6	14882.38
7484.4	15044.87
7485.2	15106.31
7486	15291.58
7486.8	15082.85
7487.6	15512.22
7488.4	15501.3
7489.2	15493.34
7490	15241.11
7490.8	15298.17
7491.6	15062.35
7492.4	14714.78
7493.2	15195.78
7494	14612.86
7494.8	13533.57
7495.6	12904.64
7496.4	13917.53
7497.2	14747.68
7498	14348.4
7498.8	14198.67
7499.6	14077.09
7500.4	14027.98
7501.2	14031.94
7502	14006.73
7502.8	13904.74
7503.6	13989.5
7504.4	13890.39
7505.2	13691.27
7506	13548.12
7506.8	13477.4
7507.6	13297.95
7508.4	13816.31
7509.2	14105.08
7510	14090.37
7510.8	13234.82
7511.6	12354.7
7512.4	13611.74
7513.2	14184.02
7514	14240.15
7514.8	14198.05
7515.6	14094.49
7516.4	14341.18
7517.2	14751.8
7518	14764.05
7518.8	14820.67
7519.6	15126.16
7520.4	15016.09
7521.2	14801.08
7522	14304.68
7522.8	13357.44
7523.6	13071.89
7524.4	14101.41
7525.2	13851.48
7526	13894.89
7526.8	14396.12
7527.6	14699.99
7528.4	14552.41
7529.2	14641.87
7530	14710.54
7530.8	14354.29
7531.6	13679.32
7532.4	14481.95
7533.2	14818.85
7534	14875.36
7534.8	15006.21
7535.6	14986.55
7536.4	15465.52
7537.2	15237.87
7538	15010.43
7538.8	15296.65
7539.6	15623.97
7540.4	15261.72
7541.2	15464.94
7542	15512.6
7542.8	15499.3
7543.6	15421.86
7544.4	15454.69
7545.2	15279.14
7546	14798.83
7546.8	14135.12
7547.6	14321.13
7548.4	14594.75
7549.2	14640.01
7550	14524.3
7550.8	14392.38
7551.6	14399.35
7552.4	14497.78
7553.2	14228.08
7554	14449.27
7554.8	14210.33
7555.6	13736.67
7556.4	13768.84
7557.2	14443.43
7558	14462.91
7558.8	14702.7
7559.6	14506.69
7560.4	14098.88
7561.2	14543.03
7562	14685.15
7562.8	14739.69
7563.6	14843.83
7564.4	15174.67
7565.2	15218.03
7566	15238.68
7566.8	15390.56
7567.6	15176.96
7568.4	15139.88
7569.2	14228.93
7570	14523.46
7570.8	15219.75
7571.6	15280.31
7572.4	15187.22
7573.2	14968.84
7574	14168.46
7574.8	13774.22
7575.6	14334.43
7576.4	14870.47
7577.2	14474.38
7578	14186.84
7578.8	14238.04
7579.6	14093.23
7580.4	14171.31
7581.2	14187.9
7582	14451.31
7582.8	13765.56
7583.6	13400.39
7584.4	13023.44
7585.2	13968.13
7586	13239.68
7586.8	12936.14
7587.6	14075.02
7588.4	13581.8
7589.2	13449.78
7590	13687.6
7590.8	13526.92
7591.6	13396.7
7592.4	13234.29
7593.2	13014.4
7594	10867.79
7594.8	8100.24
7595.6	6854.49
7596.4	5778.85
7597.2	5797.24
7598	6337.59
7598.8	6128.28
7599.6	5425.78
7600.4	4770.42
7601.2	4048.44
7602	4117.55
7602.8	3230.84
7603.6	4116.84
7604.4	3339.86
7605.2	3495.02
7606	3666.19
7606.8	3573.85
7607.6	3819.54
7608.4	4427.62
7609.2	4973.99
7610	4177.66
7610.8	4597.04
7611.6	6604.09
7612.4	5861.57
7613.2	5582.3
7614	7551.08
7614.8	9266.22
7615.6	7430
7616.4	7922.12
7617.2	9976.39
7618	12920.32
7618.8	13502.84
7619.6	12737.75
7620.4	11850.15
7621.2	8944.41
7622	9516.24
7622.8	11254.47
7623.6	7994.54
7624.4	6028.25
7625.2	6574.47
7626	9635.49
7626.8	9236.67
7627.6	5576.83
7628.4	4681.26
7629.2	6663.83
7630	9473.8
7630.8	8154.7
7631.6	4907.25
7632.4	4433.86
7633.2	6743.72
7634	9719.04
7634.8	9058.3
7635.6	5589.37
7636.4	4443.21
7637.2	6233.52
7638	10063.82
7638.8	10500.04
7639.6	7774.25
7640.4	4773.76
7641.2	5493.04
7642	9009.38
7642.8	11560.77
7643.6	10908.93
7644.4	7522.24
7645.2	5765.52
7646	7069.13
7646.8	10969.52
7647.6	12387.22
7648.4	11984.1
7649.2	8768.03
7650	6760.56
7650.8	7271.7
7651.6	10413.01
7652.4	12145.78
7653.2	11637.05
7654	9560.8
7654.8	7327.08
7655.6	7567.99
7656.4	10336.72
7657.2	12106.23
7658	11536.75
7658.8	11208.79
7659.6	8921.42
7660.4	8093
7661.2	9275.02
7662	12057.25
7662.8	13513.94
7663.6	13574.94
7664.4	11587.51
7665.2	9552.61
7666	10451.39
7666.8	12108.98
7667.6	14365.5
7668.4	14783.74
7669.2	14352.36
7670	13610.25
7670.8	12407.15
7671.6	11841.19
7672.4	12143.94
7673.2	13537.2
7674	13655.21
7674.8	13652.79
7675.6	13512.19
7676.4	12731.45
7677.2	11756.79
7678	11716.56
7678.8	12370.58
7679.6	12933.34
7680.4	12549.46
7681.2	12494.22
7682	12644.92
7682.8	11644.67
7683.6	11143.15
7684.4	11336.45
7685.2	11879.25
7686	11951.14
7686.8	12000.97
7687.6	11662.56
7688.4	11417.48
7689.2	11098.26
7690	10901.63
7690.8	11027.12
7691.6	11312.39
7692.4	11580.29
7693.2	12371.58
7694	12457.18
7694.8	12687.15
7695.6	12700.16
7696.4	12285.91
7697.2	12487.9
7698	12931.98
7698.8	12215.18
7699.6	11950.74
7700.4	13334.3
7701.2	13793.44
7702	14098.04
7702.8	13921.27
7703.6	13974.61
7704.4	14045.88
7705.2	14200.57
7706	14071.92
7706.8	13790.34
7707.6	13707.21
7708.4	13472.74
7709.2	13510.08
7710	12616.4
7710.8	12106.26
7711.6	12483.47
7712.4	12780.63
7713.2	12942.84
7714	12949.33
7714.8	11872.48
7715.6	12056.96
7716.4	12638.53
7717.2	13027.92
7718	13056.36
7718.8	12572.88
7719.6	12206.52
7720.4	12265.57
7721.2	12182.23
7722	12214.08
7722.8	11646.12
7723.6	11514.93
7724.4	12132.9
7725.2	12312.59
7726	12484.43
7726.8	12437.05
7727.6	11748.77
7728.4	11618.24
7729.2	12525.51
7730	12567.05
7730.8	12287.19
7731.6	12233.13
7732.4	11831.91
7733.2	11717.49
7734	11920.14
7734.8	12242.49
7735.6	12155.39
7736.4	12044.74
7737.2	12486.24
7738	12366.89
7738.8	12862.99
7739.6	13199.16
7740.4	12872
7741.2	12758.9
7742	12387.73
7742.8	11991
7743.6	11857.85
7744.4	12394.93
7745.2	12055.53
7746	11425.96
7746.8	11579.78
7747.6	11466.43
7748.4	10602.77
7749.2	10257.43
7750	11525.41
7750.8	11722.5
7751.6	11509.71
7752.4	11640.25
7753.2	11760.07
7754	12068.31
7754.8	12193.75
7755.6	12263.42
7756.4	12571.53
7757.2	12748.4
7758	12790.41
7758.8	12615.62
7759.6	12320.54
7760.4	12350.8
7761.2	12529.22
7762	12918.94
7762.8	12878.42
7763.6	12701.7
7764.4	12474.67
7765.2	12312.67
7766	12300.26
7766.8	12477.49
7767.6	12600.83
7768.4	12783.71
7769.2	13091.06
7770	13029.13
7770.8	13304.39
7771.6	13102.03
7772.4	12974.29
7773.2	13036.66
7774	12994.04
7774.8	12788.2
7775.6	12759.49
7776.4	12869.32
7777.2	12715.72
7778	12797.14
7778.8	13229.14
7779.6	12750.56
7780.4	12180.84
7781.2	11543.21
7782	12169.25
7782.8	12472.11
7783.6	12341.23
7784.4	12179.3
7785.2	11933.26
7786	11840.58
7786.8	11746.73
7787.6	11750.2
7788.4	11447.65
7789.2	10783.2
7790	11544.44
7790.8	12182.77
7791.6	12363.17
7792.4	12419.05
7793.2	12307.04
7794	12139.38
7794.8	11884.71
7795.6	11513.67
7796.4	10867.3
7797.2	10526.58
7798	9845.83
7798.8	10140.33
7799.6	10028.53
7800.4	9968.44
7801.2	10349.96
7802	10684.65
7802.8	10480.16
7803.6	10550.5
7804.4	10450.23
7805.2	10332.82
7806	10212.66
7806.8	10198.96
7807.6	9898.32
7808.4	9894.61
7809.2	10349.39
7810	10332.79
7810.8	9757.73
7811.6	9546.51
7812.4	10274.91
7813.2	10759.56
7814	10927.03
7814.8	10926.75
7815.6	10933.85
7816.4	10744.53
7817.2	11010.28
7818	11122.23
7818.8	10735.53
7819.6	10892.6
7820.4	11039.13
7821.2	11008.62
7822	11083.29
7822.8	11475.37
7823.6	11185.07
7824.4	11067.19
7825.2	10743.82
7826	10774.22
7826.8	10434.06
7827.6	10263.16
7828.4	10185.99
7829.2	10236.63
7830	10055.91
7830.8	10028.11
7831.6	9620.85
7832.4	8888.12
7833.2	9573.16
7834	10319.94
7834.8	10503.51
7835.6	10229.15
7836.4	10304.24
7837.2	10783.35
7838	10940.93
7838.8	10759.07
7839.6	10838.65
7840.4	10948.04
7841.2	11154.58
7842	11195.83
7842.8	11107.67
7843.6	11296.23
7844.4	11411.39
7845.2	11317.88
7846	11547.14
7846.8	11511.64
7847.6	11496.54
7848.4	11594.9
7849.2	11304.56
7850	10974.16
7850.8	11152.08
7851.6	11487.06
7852.4	11643.36
7853.2	11711.24
7854	11749.38
7854.8	11621.89
7855.6	11359.16
7856.4	11674.79
7857.2	11837.6
7858	11909.42
7858.8	12092.75
7859.6	11723.16
7860.4	11515.68
7861.2	10993.71
7862	10839.91
7862.8	10678.03
7863.6	10408.23
7864.4	10358.03
7865.2	10662.42
7866	10962.54
7866.8	11370.53
7867.6	11622.76
7868.4	11711.92
7869.2	11356.29
7870	10543.52
7870.8	10478.54
7871.6	10597.93
7872.4	10024.43
7873.2	9749.08
7874	9873.47
7874.8	9802.74
7875.6	9595.17
7876.4	9599.48
7877.2	9365.12
7878	9599.23
7878.8	9925.76
7879.6	9799.25
7880.4	9699.49
7881.2	9507.15
7882	9343.59
7882.8	9602.4
7883.6	9927.39
7884.4	10133.3
7885.2	10142.37
7886	10551.06
7886.8	10691.34
7887.6	10803.32
7888.4	11586.92
7889.2	11697.19
7890	11734.55
7890.8	11812.6
7891.6	11769.65
7892.4	11593.24
7893.2	11177.53
7894	10579.96
7894.8	10415.49
7895.6	10431.38
7896.4	10399.83
7897.2	10699.6
7898	10972.31
7898.8	10966.49
7899.6	11008.91
7900.4	10711.15
7901.2	10691.74
7902	10560.05
7902.8	11126.5
7903.6	11128.8
7904.4	10977.09
7905.2	10969.44
7906	10901.09
7906.8	10606.14
7907.6	10459.64
7908.4	9781.11
7909.2	9321.84
7910	9698.77
7910.8	9855.4
7911.6	9954.27
7912.4	9469.5
7913.2	8769.43
7914	9409.84
7914.8	10065.15
7915.6	9763.8
7916.4	9552.49
7917.2	9312.34
7918	8660.33
7918.8	9267.37
7919.6	9709.82
7920.4	9349.03
7921.2	9526.38
7922	9700.61
7922.8	9324.18
7923.6	9301.9
7924.4	9392.65
7925.2	9740.11
7926	9702.98
7926.8	9700.76
7927.6	9913.11
7928.4	9715.41
7929.2	9877.27
7930	10068.3
7930.8	10138.06
7931.6	10725.6
7932.4	10510.31
7933.2	10369.99
7934	11383.9
7934.8	12243.4
7935.6	12413.8
7936.4	12034.66
7937.2	10997.29
7938	11304.91
7938.8	12036.71
7939.6	12214.35
7940.4	12484.22
7941.2	12007.05
7942	11607.55
7942.8	11838.01
7943.6	11365.1
7944.4	11274.88
7945.2	11627.71
7946	11050.57
7946.8	11866.14
7947.6	12616.58
7948.4	12482.38
7949.2	12408.11
7950	12647.58
7950.8	12582.44
7951.6	12272.46
7952.4	12483.89
7953.2	12824.99
7954	12458.48
7954.8	12194.29
7955.6	12219.69
7956.4	11979.98
7957.2	12146.55
7958	12520.07
7958.8	12112.18
7959.6	12188.03
7960.4	12166.07
7961.2	12214.04
7962	12316.53
7962.8	11759.69
7963.6	11744.29
7964.4	12083.2
7965.2	11671.3
7966	11750.66
7966.8	11680.23
7967.6	11471.48
7968.4	11043.76
7969.2	11064.72
7970	10976.52
7970.8	10811.49
7971.6	10884.83
7972.4	11228.86
7973.2	11575.56
7974	11569.71
7974.8	11493.26
7975.6	11847.3
7976.4	11795.43
7977.2	11597.5
7978	11385.59
7978.8	11130.23
7979.6	11534.4
7980.4	11648.11
7981.2	11658.12
7982	12182.73
7982.8	12641.21
7983.6	12741.82
7984.4	12302.68
7985.2	12294.54
7986	12540.2
7986.8	12069.38
7987.6	11309.88
7988.4	12028.53
7989.2	12723.28
7990	12951.82
7990.8	12716.25
7991.6	12692.53
7992.4	12394.67
7993.2	12665.89
7994	12383.37
7994.8	11711.51
7995.6	12222.44
7996.4	12571.91
7997.2	12866.35
7998	12604.56
7998.8	11461.43
7999.6	11403.46
